t,x(t),z(t),v_x(t),v_z(t),a_x(t),a_z(t) (added)
0.02,5,-5,0,0,0.8509866,2.876773
0.04,5.000244,-4.999176,0.01216473,0.04112305,0.8516889,2.877473
0.06,5.000731,-4.997531,0.02432015,0.08219244,0.8530878,2.878865
0.08,5.001461,-4.995066,0.0365,0.1232937,0.8551873,2.880937
0.09999999,5.002435,-4.991777,0.04870578,0.1644134,0.8579882,2.883673
0.12,5.003654,-4.987667,0.06094654,0.2055526,0.8614912,2.887049
0.14,5.005118,-4.982732,0.07323067,0.2467189,0.8656983,2.891038
0.16,5.006829,-4.976974,0.08556572,0.2879099,0.8706127,2.895603
0.18,5.00879,-4.970387,0.09800249,0.329275,0.8762403,2.900709
0.2,5.011,-4.962975,0.1104809,0.3705817,0.882578,2.906302
0.22,5.013461,-4.954736,0.1230429,0.4119478,0.8896315,2.912332
0.24,5.016176,-4.945664,0.1357411,0.4535133,0.8974085,2.918744
0.26,5.019146,-4.935763,0.1485049,0.4950245,0.9059072,2.925467
0.28,5.022374,-4.925033,0.1613715,0.5365655,0.9151322,2.932429
0.3,5.025863,-4.913461,0.1744453,0.578458,0.9250962,2.939559
0.32,5.029615,-4.901057,0.1875855,0.6202018,0.9357964,2.946764
0.34,5.033634,-4.887811,0.2009252,0.6622026,0.9472449,2.953959
0.36,5.037921,-4.87373,0.2143648,0.7041001,0.9594399,2.961038
0.38,5.042483,-4.858801,0.2280436,0.7463076,0.9723955,2.967903
0.4,5.047319,-4.843035,0.2418244,0.7883437,0.9861104,2.974434
0.42,5.052438,-4.826417,0.2558862,0.8307537,1.000599,2.980517
0.4400001,5.057838,-4.80896,0.2700477,0.8729006,1.015859,2.986022
0.4600001,5.06353,-4.790648,0.2845402,0.9154957,1.031908,2.990818
0.4800001,5.069512,-4.771495,0.2991233,0.9577106,1.04874,2.994761
0.5000001,5.075795,-4.751483,0.314094,1.000459,1.066379,2.997708
0.52,5.082377,-4.730631,0.3291402,1.04268,1.084813,2.999501
0.54,5.089271,-4.708919,0.3446379,1.085539,1.104068,2.999982
0.56,5.096478,-4.686355,0.3603122,1.128086,1.124143,2.998983
0.58,5.104004,-4.662941,0.3762687,1.170606,1.145045,2.996333
0.6,5.111855,-4.638677,0.3925191,1.213077,1.166779,2.991853
0.6199999,5.120038,-4.613565,0.4090755,1.255471,1.189355,2.985363
0.6399999,5.128557,-4.587607,0.4259497,1.29776,1.212776,2.976675
0.6599999,5.137421,-4.560807,0.4431535,1.339913,1.23705,2.9656
0.6799999,5.146636,-4.533166,0.4606993,1.381896,1.262182,2.951948
0.6999999,5.156209,-4.504691,0.4785991,1.423672,1.288177,2.935524
0.7199998,5.166147,-4.475384,0.4968651,1.465201,1.31504,2.916137
0.7399998,5.176458,-4.445253,0.5155098,1.506442,1.342772,2.893593
0.7599998,5.18715,-4.414304,0.5345452,1.547348,1.371379,2.867702
0.7799998,5.198231,-4.382545,0.5539839,1.587873,1.40086,2.838278
0.7999998,5.209709,-4.349983,0.5738382,1.627966,1.431216,2.80514
0.8199998,5.221592,-4.316629,0.5941205,1.667574,1.462446,2.768112
0.8399997,5.233891,-4.282495,0.614843,1.706641,1.494548,2.727029
0.8599997,5.246612,-4.24759,0.6360185,1.745111,1.527518,2.681735
0.8799997,5.259767,-4.21193,0.6576587,1.782923,1.561349,2.632087
0.8999997,5.273363,-4.175528,0.6797761,1.820014,1.596034,2.577954
0.9199997,5.287412,-4.138399,0.7023827,1.856321,1.631563,2.519224
0.9399996,5.301923,-4.100562,0.7254905,1.89178,1.667922,2.4558
0.9599996,5.316907,-4.062033,0.7491109,1.926321,1.705096,2.387605
0.9799996,5.332373,-4.022834,0.7732558,1.959879,1.743067,2.314587
0.9999996,5.348333,-3.982984,0.7979362,1.992384,1.781813,2.236714
1.02,5.364798,-3.942507,0.8231631,2.023767,1.821308,2.153979
1.04,5.381778,-3.901426,0.8489469,2.05396,1.861521,2.066403
1.06,5.399286,-3.859767,0.875298,2.082892,1.902422,1.974033
1.08,5.417332,-3.817555,0.9022258,2.110497,1.943971,1.876946
1.1,5.435928,-3.77482,0.9297394,2.136706,1.986123,1.775248
1.12,5.455086,-3.731589,0.9578474,2.161455,2.028832,1.669075
1.14,5.474819,-3.687894,0.9865575,2.184681,2.072042,1.558592
1.159999,5.495138,-3.643767,1.015877,2.206321,2.115693,1.443997
1.179999,5.516056,-3.599239,1.045811,2.226318,2.159717,1.325514
1.199999,5.537584,-3.554346,1.076366,2.244617,2.204041,1.203398
1.219999,5.559737,-3.509121,1.107545,2.261166,2.248582,1.077931
1.239999,5.582525,-3.463602,1.139351,2.275918,2.293251,0.9494206
1.259999,5.605963,-3.417825,1.171787,2.288829,2.337948,0.8181983
1.279999,5.630062,-3.371827,1.204852,2.299863,2.382569,0.6846175
1.299999,5.654834,-3.325647,1.238545,2.308985,2.426994,0.5490505
1.319999,5.680294,-3.279323,1.272863,2.316167,2.471098,0.4118862
1.339999,5.706451,-3.232895,1.307801,2.321388,2.514744,0.2735263
1.359999,5.73332,-3.186402,1.343353,2.324631,2.557785,0.1343833
1.379999,5.760912,-3.139884,1.379509,2.325886,2.600063,-0.005125258
1.399999,5.789239,-3.093381,1.416259,2.325147,2.641407,-0.1445784
1.419999,5.818313,-3.046933,1.453589,2.322416,2.681637,-0.2835552
1.439999,5.848145,-3.000579,1.491483,2.3177,2.720559,-0.42164
1.459999,5.878746,-2.954359,1.529923,2.311013,2.757969,-0.5584247
1.479999,5.910125,-2.908312,1.568886,2.302374,2.793649,-0.6935121
1.499999,5.942294,-2.862476,1.608347,2.291808,2.827371,-0.8265195
1.519999,5.975262,-2.81689,1.648279,2.279345,2.858895,-0.9570817
1.539999,6.009037,-2.77159,1.68865,2.26502,2.887969,-1.084854
1.559999,6.043628,-2.726613,1.729424,2.248873,2.914329,-1.209513
1.579999,6.079041,-2.681995,1.770563,2.230951,2.937705,-1.330762
1.599999,6.115283,-2.63777,1.812025,2.211302,2.957813,-1.44833
1.619999,6.152361,-2.593971,1.853762,2.189978,2.974364,-1.561974
1.639999,6.190278,-2.550632,1.895724,2.167038,2.987062,-1.671478
1.659999,6.229037,-2.507782,1.937855,2.142539,2.995603,-1.776659
1.679999,6.268641,-2.465452,1.980095,2.116545,2.999683,-1.877362
1.699999,6.309091,-2.423671,2.022382,2.08912,2.998993,-1.973462
1.719999,6.350386,-2.382466,2.064647,2.060329,2.993229,-2.064865
1.739999,6.392525,-2.341862,2.106818,2.030242,2.982085,-2.151504
1.759999,6.435503,-2.301885,2.148817,1.998925,2.965266,-2.233343
1.779999,6.479317,-2.262558,2.190564,1.966449,2.942483,-2.31037
1.799999,6.523959,-2.223902,2.231973,1.932881,2.913462,-2.382601
1.819999,6.56942,-2.185938,2.272956,1.898291,2.877941,-2.450075
1.839999,6.61569,-2.148685,2.31342,1.862746,2.835683,-2.512854
1.859999,6.662758,-2.11216,2.353268,1.826316,2.786469,-2.57102
1.879999,6.710608,-2.076381,2.392403,1.789065,2.730112,-2.624675
1.899999,6.759224,-2.041361,2.43072,1.751057,2.666451,-2.673937
1.919999,6.808589,-2.007116,2.468117,1.712358,2.595365,-2.718939
1.939999,6.858681,-1.973657,2.504488,1.673026,2.516768,-2.759829
1.959999,6.909477,-1.940997,2.539726,1.633121,2.43062,-2.796764
1.979999,6.960954,-1.909145,2.573723,1.592701,2.336922,-2.829912
1.999999,7.013083,-1.878111,2.60637,1.551818,2.235728,-2.859448
2.019999,7.065836,-1.847902,2.637564,1.510525,2.127141,-2.885554
2.039999,7.119182,-1.818527,2.667197,1.468871,2.011316,-2.908414
2.059999,7.173087,-1.789991,2.695167,1.426902,1.888466,-2.928219
2.079999,7.227516,-1.7623,2.721374,1.384663,1.758856,-2.945158
2.099999,7.282432,-1.735458,2.745722,1.342193,1.622809,-2.959422
2.119999,7.337795,-1.709469,2.76812,1.299532,1.480701,-2.971201
2.139999,7.393566,-1.684337,2.78848,1.256715,1.332961,-2.980683
2.159999,7.449702,-1.660064,2.806725,1.213774,1.18007,-2.988055
2.179999,7.506158,-1.636651,2.822779,1.170741,1.022557,-2.993497
2.199999,7.562891,-1.6141,2.836579,1.127642,0.8609914,-2.997188
2.219999,7.619853,-1.592413,2.848067,1.084503,0.6959864,-2.999299
2.239999,7.676998,-1.571588,2.857195,1.041346,0.5281844,-2.999999
2.259999,7.734277,-1.551626,2.863923,0.9981912,0.3582576,-2.999449
2.279999,7.791642,-1.532527,2.868221,0.9550567,0.1868986,-2.997803
2.299999,7.849043,-1.51429,2.87007,0.911958,0.01481473,-2.995212
2.319999,7.906433,-1.496914,2.86946,0.8689087,-0.1572808,-2.991816
2.339998,7.96376,-1.480398,2.866391,0.8259202,-0.3286752,-2.987751
2.359998,8.020978,-1.46474,2.860876,0.7830021,-0.4986637,-2.983144
2.379998,8.078036,-1.449939,2.852933,0.740162,-0.6665543,-2.978117
2.399998,8.134888,-1.435993,2.842594,0.6974059,-0.8316789,-2.972783
2.419998,8.191485,-1.4229,2.829899,0.6547384,-0.9933981,-2.96725
2.439998,8.247783,-1.410659,2.814898,0.612162,-1.151104,-2.961616
2.459998,8.303735,-1.399268,2.797648,0.5696786,-1.30423,-2.955975
2.479998,8.359299,-1.388724,2.778215,0.5272877,-1.452255,-2.950412
2.499998,8.414432,-1.379027,2.756673,0.4849879,-1.594702,-2.945005
2.519998,8.469092,-1.370173,2.733103,0.4427778,-1.731147,-2.939828
2.539998,8.523243,-1.362162,2.70759,0.4006541,-1.86122,-2.934944
2.559998,8.576846,-1.354992,2.680227,0.3586115,-1.984607,-2.930413
2.579998,8.629867,-1.348661,2.651108,0.316646,-2.101044,-2.926288
2.599998,8.682272,-1.343168,2.620335,0.2747517,-2.21033,-2.922613
2.619998,8.734031,-1.338512,2.588009,0.2329212,-2.31231,-2.919429
2.639998,8.785114,-1.334691,2.554236,0.1911485,-2.40689,-2.916769
2.659998,8.835495,-1.331705,2.519121,0.1494258,-2.494018,-2.91466
2.679998,8.885149,-1.329552,2.482771,0.107745,-2.573698,-2.913124
2.699998,8.934053,-1.328232,2.445294,0.0660985,-2.645975,-2.912176
2.719998,8.982187,-1.327745,2.406795,0.02447672,-2.710936,-2.911824
2.739998,9.029533,-1.328089,2.367379,-0.0171278,-2.768707,-2.912073
2.759998,9.076075,-1.329266,2.327149,-0.058724,-2.81945,-2.912919
2.779998,9.121797,-1.331275,2.286206,-0.1003204,-2.863354,-2.914355
2.799998,9.166688,-1.334115,2.244647,-0.1419255,-2.900638,-2.916365
2.819998,9.210737,-1.337788,2.202568,-0.1835473,-2.931542,-2.918929
2.839998,9.253937,-1.342294,2.160059,-0.225194,-2.956326,-2.92202
2.859998,9.296279,-1.347634,2.117208,-0.2668728,-2.975266,-2.925607
2.879998,9.337759,-1.353808,2.0741,-0.3085911,-2.988649,-2.929651
2.899998,9.378373,-1.360817,2.030811,-0.3503551,-2.99677,-2.934106
2.919998,9.418119,-1.368663,1.98742,-0.3921709,-2.999933,-2.938921
2.939998,9.456997,-1.377346,1.943996,-0.4340436,-2.998443,-2.94404
2.959998,9.495007,-1.386867,1.900606,-0.4759774,-2.992605,-2.949398
2.979998,9.53215,-1.397229,1.857311,-0.5179757,-2.982723,-2.954925
2.999998,9.568432,-1.408432,1.81417,-0.560041,-2.969099,-2.960544
3.019998,9.603854,-1.420478,1.771236,-0.6021746,-2.952026,-2.96617
3.039998,9.638423,-1.433368,1.728559,-0.6443766,-2.931794,-2.971714
3.059998,9.672145,-1.447103,1.686182,-0.6866457,-2.908681,-2.977079
3.079998,9.705026,-1.461684,1.644148,-0.7289793,-2.882961,-2.98216
3.099998,9.737074,-1.477114,1.602493,-0.7713734,-2.854892,-2.986845
3.119998,9.768297,-1.493393,1.561251,-0.8138224,-2.824726,-2.991017
3.139998,9.798704,-1.510521,1.520452,-0.8563191,-2.792701,-2.994552
3.159998,9.828304,-1.528501,1.480122,-0.8988535,-2.759046,-2.997317
3.179998,9.857108,-1.547331,1.440285,-0.941416,-2.723976,-2.999174
3.199998,9.885125,-1.567013,1.40096,-0.9839919,-2.687695,-2.999979
3.219998,9.912367,-1.587547,1.362164,-1.026568,-2.650395,-2.999579
3.239998,9.938843,-1.608932,1.323913,-1.069126,-2.612259,-2.997819
3.259998,9.964565,-1.631167,1.286217,-1.111646,-2.573454,-2.994535
3.279998,9.989545,-1.654251,1.249086,-1.154108,-2.53414,-2.989559
3.299998,10.01379,-1.678183,1.212527,-1.196486,-2.494463,-2.982719
3.319998,10.03732,-1.70296,1.176546,-1.238754,-2.454562,-2.973837
3.339998,10.06014,-1.72858,1.141145,-1.280884,-2.414563,-2.962734
3.359998,10.08227,-1.755039,1.106326,-1.322842,-2.374583,-2.949226
3.379997,10.10371,-1.782333,1.072087,-1.364597,-2.334731,-2.933128
3.399997,10.12448,-1.810458,1.038428,-1.406108,-2.295107,-2.914255
3.419997,10.14458,-1.839407,1.005344,-1.447339,-2.255803,-2.892422
3.439997,10.16404,-1.869174,0.9728317,-1.488245,-2.216902,-2.867444
3.459997,10.18285,-1.899752,0.9408841,-1.528784,-2.178481,-2.839141
3.479997,10.20104,-1.931132,0.9094945,-1.568906,-2.140608,-2.807335
3.499997,10.21861,-1.963305,0.8786547,-1.608562,-2.103346,-2.771857
3.519997,10.23558,-1.996262,0.8483562,-1.6477,-2.066753,-2.73254
3.539997,10.25195,-2.029989,0.818589,-1.686265,-2.030881,-2.689232
3.559997,10.26773,-2.064475,0.7893429,-1.7242,-1.995775,-2.641787
3.579997,10.28295,-2.099706,0.7606066,-1.761447,-1.961475,-2.590073
3.599997,10.29759,-2.135667,0.7323685,-1.797944,-1.928021,-2.533974
3.619997,10.31168,-2.172341,0.7046163,-1.83363,-1.895445,-2.473387
3.639997,10.32523,-2.209712,0.6773374,-1.86844,-1.863775,-2.408228
3.659997,10.33824,-2.24776,0.6505188,-1.902308,-1.833036,-2.338435
3.679997,10.35072,-2.286465,0.6241469,-1.93517,-1.803252,-2.263964
3.699997,10.36268,-2.325806,0.5982081,-1.966959,-1.774442,-2.184794
3.719997,10.37413,-2.36576,0.5726883,-1.997608,-1.746623,-2.100932
3.739997,10.38508,-2.406303,0.5475731,-2.02705,-1.71981,-2.012407
3.759997,10.39554,-2.447409,0.5228482,-2.055218,-1.694014,-1.919275
3.779997,10.40551,-2.489051,0.4984988,-2.082049,-1.669248,-1.821623
3.799997,10.415,-2.531202,0.4745102,-2.107476,-1.64552,-1.719563
3.819997,10.42401,-2.573832,0.4508674,-2.131438,-1.622837,-1.613235
3.839997,10.43256,-2.616911,0.4275553,-2.153875,-1.601206,-1.502813
3.859997,10.44065,-2.660407,0.404559,-2.174727,-1.58063,-1.388493
3.879997,10.44829,-2.704286,0.3818632,-2.19394,-1.561113,-1.270502
3.899997,10.45548,-2.748517,0.3594526,-2.211462,-1.542659,-1.149095
3.919997,10.46222,-2.793062,0.337312,-2.227244,-1.525268,-1.024551
3.939997,10.46853,-2.837888,0.3154263,-2.241244,-1.508944,-0.8971721
3.959997,10.4744,-2.882957,0.2937799,-2.253419,-1.493685,-0.7672855
3.979997,10.47985,-2.928232,0.2723578,-2.263736,-1.479493,-0.6352353
3.999997,10.48487,-2.973676,0.2511444,-2.272162,-1.466368,-0.5013855
4.019997,10.48947,-3.01925,0.2301247,-2.278675,-1.454309,-0.3661126
4.039997,10.49366,-3.064916,0.2092831,-2.283252,-1.443316,-0.2298056
4.059997,10.49743,-3.110634,0.1886046,-2.285882,-1.433389,-0.09286229
4.079997,10.50079,-3.156365,0.1680738,-2.286554,-1.424524,0.04431447
4.099997,10.50374,-3.20207,0.1476755,-2.285266,-1.416722,0.1813215
4.119997,10.50629,-3.24771,0.1273945,-2.282022,-1.409982,0.3177563
4.139997,10.50843,-3.293247,0.1072155,-2.276829,-1.404304,0.4532203
4.159997,10.51017,-3.33864,0.08712342,-2.269703,-1.399685,0.5873253
4.179997,10.51152,-3.383853,0.06710302,-2.260663,-1.396126,0.719694
4.199997,10.51246,-3.428848,0.04713921,-2.249735,-1.393624,0.8499627
4.219997,10.513,-3.473586,0.02721682,-2.236948,-1.392179,0.9777848
4.239997,10.51315,-3.518032,0.007320758,-2.22234,-1.391794,1.102835
4.259997,10.51289,-3.56215,-0.01256414,-2.205949,-1.392466,1.224809
4.279997,10.51224,-3.605906,-0.03245295,-2.187821,-1.394194,1.343427
4.299997,10.5112,-3.649265,-0.05236078,-2.168003,-1.396977,1.458434
4.319997,10.50975,-3.692195,-0.07230269,-2.146547,-1.400816,1.569602
4.339997,10.5079,-3.734664,-0.09229375,-2.12351,-1.405715,1.676731
4.359997,10.50565,-3.776642,-0.1123491,-2.098949,-1.411668,1.779651
4.379997,10.503,-3.818099,-0.1324838,-2.072924,-1.418679,1.878218
4.399997,10.49995,-3.859008,-0.1527129,-2.0455,-1.426749,1.972317
4.419997,10.49649,-3.899341,-0.1730514,-2.016738,-1.435876,2.061864
4.439997,10.49261,-3.939074,-0.1935147,-1.986706,-1.446062,2.146797
4.459997,10.48833,-3.978182,-0.2141176,-1.955469,-1.457306,2.227087
4.479997,10.48363,-4.016642,-0.2348752,-1.923094,-1.469612,2.302726
4.499997,10.47852,-4.054433,-0.2558026,-1.889648,-1.482976,2.373732
4.519997,10.47298,-4.091536,-0.2769151,-1.855197,-1.497398,2.440147
4.539997,10.46701,-4.12793,-0.2982275,-1.819807,-1.512879,2.502032
4.559997,10.46062,-4.163599,-0.319755,-1.783543,-1.529418,2.55947
4.579997,10.45378,-4.198527,-0.3415127,-1.746469,-1.547012,2.612558
4.599997,10.44651,-4.232698,-0.3635156,-1.708648,-1.565662,2.661413
4.619997,10.4388,-4.266099,-0.3857785,-1.670138,-1.585364,2.706164
4.639997,10.43063,-4.298717,-0.4083165,-1.631001,-1.606112,2.746953
4.659997,10.422,-4.330541,-0.4311445,-1.591293,-1.627904,2.783933
4.679996,10.41292,-4.36156,-0.4542774,-1.551067,-1.650734,2.817265
4.699996,10.40336,-4.391766,-0.4777296,-1.510377,-1.674596,2.847118
4.719996,10.39333,-4.421149,-0.5015162,-1.469272,-1.699481,2.873666
4.739996,10.38282,-4.449703,-0.5256515,-1.427799,-1.72538,2.897088
4.759996,10.37181,-4.477421,-0.5501499,-1.386004,-1.752282,2.917566
4.779996,10.36031,-4.504298,-0.5750255,-1.343929,-1.780174,2.935281
4.799996,10.3483,-4.530328,-0.6002926,-1.301612,-1.809038,2.950418
4.819996,10.33578,-4.555508,-0.6259647,-1.259091,-1.838861,2.963158
4.839996,10.32274,-4.579834,-0.6520556,-1.2164,-1.869618,2.973682
4.859996,10.30917,-4.603303,-0.6785784,-1.173571,-1.901289,2.982168
4.879996,10.29505,-4.625914,-0.7055462,-1.130633,-1.933848,2.98879
4.899996,10.28039,-4.647664,-0.7329714,-1.087613,-1.967264,2.993718
4.919996,10.26517,-4.668552,-0.760866,-1.044535,-2.001504,2.997118
4.939996,10.24939,-4.688578,-0.7892419,-1.00142,-2.036531,2.99915
4.959996,10.23302,-4.707742,-0.81811,-0.9582893,-2.072304,2.999968
4.979996,10.21607,-4.726043,-0.8474811,-0.9151588,-2.108776,2.99972
4.999996,10.19852,-4.743482,-0.8773646,-0.8720441,-2.145895,2.99855
5.019996,10.18037,-4.760058,-0.90777,-0.8289585,-2.183604,2.996592
5.039996,10.16159,-4.775774,-0.9387054,-0.7859132,-2.221842,2.993975
5.059996,10.14219,-4.790631,-0.9701782,-0.7429176,-2.260538,2.990822
5.079996,10.12214,-4.804628,-1.002195,-0.6999793,-2.299617,2.987247
5.099996,10.10144,-4.817768,-1.034761,-0.6571043,-2.338996,2.983358
5.119996,10.08008,-4.830052,-1.06788,-0.6142972,-2.378585,2.979257
5.139996,10.05805,-4.841481,-1.101555,-0.5715608,-2.418284,2.975038
5.159996,10.03533,-4.852057,-1.135787,-0.5288969,-2.457989,2.970787
5.179996,10.01192,-4.861781,-1.170577,-0.486306,-2.497582,2.966585
5.199996,9.9878,-4.870654,-1.205923,-0.4437872,-2.536938,2.962507
5.219996,9.962961,-4.878679,-1.241821,-0.4013389,-2.575924,2.958617
5.239996,9.937394,-4.885856,-1.278265,-0.3589582,-2.614393,2.954977
5.259996,9.911087,-4.892186,-1.315249,-0.3166417,-2.652192,2.95164
5.279996,9.884029,-4.897672,-1.352762,-0.2743849,-2.689154,2.948653
5.299996,9.856212,-4.902313,-1.390792,-0.2321829,-2.725101,2.946056
5.319996,9.827623,-4.906112,-1.429325,-0.19003,-2.759848,2.943883
5.339996,9.798254,-4.909068,-1.468344,-0.1479202,-2.793194,2.942163
5.359996,9.768095,-4.911183,-1.507827,-0.105847,-2.82493,2.940917
5.379996,9.737138,-4.912457,-1.547753,-0.06380363,-2.854833,2.940159
5.399996,9.705374,-4.91289,-1.588094,-0.02178308,-2.882672,2.9399
5.419996,9.672795,-4.912484,-1.628822,0.02022176,-2.908203,2.940143
5.439996,9.639395,-4.911237,-1.669903,0.06221808,-2.931174,2.940884
5.459996,9.605166,-4.909151,-1.7113,0.104213,-2.951322,2.942114
5.479996,9.570105,-4.906224,-1.752973,0.1462135,-2.968376,2.943818
5.499996,9.534204,-4.902458,-1.794878,0.1882263,-2.982057,2.945974
5.519996,9.497463,-4.897851,-1.836966,0.2302579,-2.992079,2.948554
5.539996,9.459877,-4.892402,-1.879185,0.2723144,-2.998152,2.951524
5.559996,9.421445,-4.886112,-1.921479,0.3144013,-2.999983,2.954844
5.579996,9.382167,-4.878979,-1.963787,0.3565236,-2.997277,2.958468
5.599996,9.342044,-4.871003,-2.006044,0.3986856,-2.989738,2.962341
5.619996,9.301078,-4.862183,-2.048182,0.4408911,-2.977077,2.966405
5.639996,9.259274,-4.852518,-2.090126,0.4831424,-2.959006,2.970594
5.659996,9.216636,-4.842007,-2.1318,0.5254413,-2.93525,2.974834
5.679996,9.173171,-4.830649,-2.173123,0.567789,-2.905541,2.979046
5.699996,9.128889,-4.818443,-2.21401,0.6101848,-2.86963,2.983145
5.719995,9.083799,-4.805388,-2.254371,0.6526267,-2.827284,2.987036
5.739995,9.037915,-4.791484,-2.294117,0.6951123,-2.778292,2.990621
5.759995,8.99125,-4.776729,-2.333151,0.737637,-2.722468,2.993793
5.779995,8.94382,-4.761123,-2.371376,0.7801947,-2.659657,2.996438
5.799995,8.895644,-4.744666,-2.408694,0.8227783,-2.589734,2.998437
5.819995,8.846743,-4.727356,-2.445001,0.865378,-2.512613,2.999664
5.839995,8.797136,-4.709194,-2.480196,0.9079833,-2.428244,2.999985
5.859995,8.746851,-4.69018,-2.514176,0.9505808,-2.336624,2.99926
5.879995,8.695912,-4.670315,-2.546837,0.9931559,-2.237791,2.997345
5.899995,8.644349,-4.649599,-2.578077,1.035691,-2.131836,2.994088
5.919995,8.592192,-4.628033,-2.607794,1.078168,-2.018895,2.989332
5.939995,8.539473,-4.605619,-2.63589,1.120565,-1.899159,2.982917
5.959995,8.486226,-4.58236,-2.662266,1.162858,-1.772871,2.974675
5.979995,8.432488,-4.558258,-2.686831,1.205021,-1.640323,2.964436
5.999995,8.378297,-4.533315,-2.709496,1.247026,-1.501861,2.952027
6.019995,8.323692,-4.507535,-2.730175,1.288841,-1.357885,2.937273
6.039995,8.268715,-4.480925,-2.748793,1.330434,-1.208838,2.919995
